Sample Name, BP-05P0
Time, 2017/07/12 03:21:03
Operator, Smith
Lamp, 255
Slit,0.0
Scan From, 850.0nm
Scan To, 390.0nm
Scan Step, 1.0nm
Sample Filter, 11
memo, 
WL(nm), Abs, T%
390.0, 0.1059, 78.36
391.0, 0.1040, 78.70
392.0, 0.1022, 79.03
393.0, 0.1005, 79.34
394.0, 0.0988, 79.66
395.0, 0.0970, 79.98
396.0, 0.0955, 80.27
397.0, 0.0939, 80.57
398.0, 0.0922, 80.88
399.0, 0.0906, 81.16
400.0, 0.0891, 81.46
401.0, 0.0875, 81.75
402.0, 0.0860, 82.04
403.0, 0.0845, 82.32
404.0, 0.0830, 82.60
405.0, 0.0816, 82.88
406.0, 0.0803, 83.11
407.0, 0.0790, 83.37
408.0, 0.0777, 83.62
409.0, 0.0765, 83.86
410.0, 0.0752, 84.11
411.0, 0.0739, 84.35
412.0, 0.0727, 84.58
413.0, 0.0715, 84.82
414.0, 0.0703, 85.06
415.0, 0.0691, 85.29
416.0, 0.0680, 85.51
417.0, 0.0669, 85.73
418.0, 0.0659, 85.92
419.0, 0.0648, 86.13
420.0, 0.0638, 86.33
421.0, 0.0628, 86.54
422.0, 0.0618, 86.74
423.0, 0.0607, 86.95
424.0, 0.0598, 87.14
425.0, 0.0588, 87.33
426.0, 0.0579, 87.53
427.0, 0.0569, 87.72
428.0, 0.0560, 87.90
429.0, 0.0552, 88.07
430.0, 0.0543, 88.24
431.0, 0.0536, 88.40
432.0, 0.0527, 88.58
433.0, 0.0520, 88.72
434.0, 0.0511, 88.90
435.0, 0.0504, 89.05
436.0, 0.0495, 89.23
437.0, 0.0487, 89.39
438.0, 0.0480, 89.53
439.0, 0.0473, 89.69
440.0, 0.0465, 89.85
441.0, 0.0459, 89.98
442.0, 0.0452, 90.12
443.0, 0.0446, 90.23
444.0, 0.0439, 90.38
445.0, 0.0433, 90.50
446.0, 0.0428, 90.62
447.0, 0.0421, 90.76
448.0, 0.0415, 90.89
449.0, 0.0408, 91.03
450.0, 0.0403, 91.14
451.0, 0.0400, 91.21
452.0, 0.0395, 91.31
453.0, 0.0388, 91.45
454.0, 0.0384, 91.54
455.0, 0.0379, 91.64
456.0, 0.0373, 91.77
457.0, 0.0369, 91.86
458.0, 0.0363, 91.97
459.0, 0.0358, 92.08
460.0, 0.0354, 92.18
461.0, 0.0349, 92.28
462.0, 0.0345, 92.36
463.0, 0.0340, 92.48
464.0, 0.0335, 92.57
465.0, 0.0332, 92.64
466.0, 0.0327, 92.74
467.0, 0.0324, 92.81
468.0, 0.0319, 92.92
469.0, 0.0316, 92.99
470.0, 0.0312, 93.06
471.0, 0.0307, 93.17
472.0, 0.0303, 93.25
473.0, 0.0299, 93.35
474.0, 0.0296, 93.42
475.0, 0.0292, 93.49
476.0, 0.0288, 93.58
477.0, 0.0285, 93.65
478.0, 0.0281, 93.74
479.0, 0.0279, 93.79
480.0, 0.0275, 93.86
481.0, 0.0271, 93.94
482.0, 0.0269, 93.99
483.0, 0.0265, 94.08
484.0, 0.0262, 94.15
485.0, 0.0259, 94.21
486.0, 0.0256, 94.28
487.0, 0.0254, 94.33
488.0, 0.0250, 94.40
489.0, 0.0248, 94.45
490.0, 0.0245, 94.52
491.0, 0.0242, 94.59
492.0, 0.0239, 94.64
493.0, 0.0237, 94.70
494.0, 0.0234, 94.75
495.0, 0.0231, 94.81
496.0, 0.0229, 94.87
497.0, 0.0226, 94.93
498.0, 0.0224, 94.98
499.0, 0.0221, 95.03
500.0, 0.0219, 95.09
501.0, 0.0217, 95.12
502.0, 0.0215, 95.17
503.0, 0.0212, 95.24
504.0, 0.0210, 95.29
505.0, 0.0207, 95.34
506.0, 0.0205, 95.39
507.0, 0.0202, 95.44
508.0, 0.0201, 95.48
509.0, 0.0198, 95.55
510.0, 0.0196, 95.59
511.0, 0.0194, 95.64
512.0, 0.0191, 95.69
513.0, 0.0190, 95.73
514.0, 0.0187, 95.78
515.0, 0.0186, 95.81
516.0, 0.0184, 95.86
517.0, 0.0182, 95.90
518.0, 0.0180, 95.94
519.0, 0.0178, 95.98
520.0, 0.0176, 96.03
521.0, 0.0174, 96.07
522.0, 0.0172, 96.12
523.0, 0.0171, 96.14
524.0, 0.0169, 96.18
525.0, 0.0167, 96.22
526.0, 0.0166, 96.25
527.0, 0.0163, 96.31
528.0, 0.0162, 96.34
529.0, 0.0161, 96.37
530.0, 0.0159, 96.41
531.0, 0.0158, 96.44
532.0, 0.0155, 96.48
533.0, 0.0155, 96.50
534.0, 0.0153, 96.54
535.0, 0.0151, 96.59
536.0, 0.0151, 96.59
537.0, 0.0148, 96.65
538.0, 0.0147, 96.66
539.0, 0.0145, 96.72
540.0, 0.0144, 96.75
541.0, 0.0143, 96.76
542.0, 0.0140, 96.82
543.0, 0.0139, 96.86
544.0, 0.0137, 96.90
545.0, 0.0136, 96.92
546.0, 0.0135, 96.95
547.0, 0.0132, 97.00
548.0, 0.0132, 97.01
549.0, 0.0131, 97.04
550.0, 0.0130, 97.06
551.0, 0.0128, 97.10
552.0, 0.0127, 97.12
553.0, 0.0125, 97.15
554.0, 0.0124, 97.18
555.0, 0.0123, 97.20
556.0, 0.0121, 97.25
557.0, 0.0120, 97.27
558.0, 0.0119, 97.29
559.0, 0.0117, 97.34
560.0, 0.0117, 97.33
561.0, 0.0116, 97.37
562.0, 0.0115, 97.39
563.0, 0.0114, 97.41
564.0, 0.0112, 97.45
565.0, 0.0111, 97.47
566.0, 0.0110, 97.50
567.0, 0.0109, 97.52
568.0, 0.0108, 97.54
569.0, 0.0107, 97.58
570.0, 0.0108, 97.55
571.0, 0.0106, 97.59
572.0, 0.0104, 97.62
573.0, 0.0103, 97.65
574.0, 0.0102, 97.67
575.0, 0.0101, 97.69
576.0, 0.0100, 97.72
577.0, 0.0100, 97.73
578.0, 0.0099, 97.75
579.0, 0.0099, 97.75
580.0, 0.0096, 97.80
581.0, 0.0095, 97.83
582.0, 0.0094, 97.85
583.0, 0.0094, 97.86
584.0, 0.0093, 97.88
585.0, 0.0092, 97.89
586.0, 0.0091, 97.93
587.0, 0.0090, 97.94
588.0, 0.0089, 97.98
589.0, 0.0089, 97.98
590.0, 0.0088, 98.00
591.0, 0.0088, 97.99
592.0, 0.0086, 98.04
593.0, 0.0085, 98.06
594.0, 0.0085, 98.05
595.0, 0.0083, 98.10
596.0, 0.0084, 98.10
597.0, 0.0082, 98.14
598.0, 0.0081, 98.14
599.0, 0.0081, 98.15
600.0, 0.0079, 98.19
601.0, 0.0079, 98.21
602.0, 0.0078, 98.21
603.0, 0.0078, 98.22
604.0, 0.0078, 98.23
605.0, 0.0076, 98.26
606.0, 0.0076, 98.26
607.0, 0.0074, 98.31
608.0, 0.0074, 98.31
609.0, 0.0073, 98.33
610.0, 0.0072, 98.35
611.0, 0.0072, 98.36
612.0, 0.0072, 98.36
613.0, 0.0071, 98.38
614.0, 0.0070, 98.40
615.0, 0.0070, 98.40
616.0, 0.0069, 98.42
617.0, 0.0069, 98.42
618.0, 0.0068, 98.45
619.0, 0.0068, 98.45
620.0, 0.0067, 98.46
621.0, 0.0066, 98.49
622.0, 0.0065, 98.51
623.0, 0.0064, 98.54
624.0, 0.0064, 98.54
625.0, 0.0063, 98.56
626.0, 0.0062, 98.59
627.0, 0.0061, 98.60
628.0, 0.0061, 98.61
629.0, 0.0060, 98.63
630.0, 0.0059, 98.64
631.0, 0.0060, 98.63
632.0, 0.0058, 98.66
633.0, 0.0058, 98.68
634.0, 0.0058, 98.67
635.0, 0.0057, 98.70
636.0, 0.0056, 98.71
637.0, 0.0056, 98.71
638.0, 0.0056, 98.72
639.0, 0.0056, 98.73
640.0, 0.0054, 98.76
641.0, 0.0055, 98.75
642.0, 0.0053, 98.78
643.0, 0.0052, 98.80
644.0, 0.0052, 98.80
645.0, 0.0052, 98.81
646.0, 0.0052, 98.81
647.0, 0.0051, 98.84
648.0, 0.0051, 98.84
649.0, 0.0050, 98.85
650.0, 0.0049, 98.87
651.0, 0.0048, 98.90
652.0, 0.0048, 98.90
653.0, 0.0048, 98.91
654.0, 0.0047, 98.92
655.0, 0.0046, 98.94
656.0, 0.0047, 98.93
657.0, 0.0045, 98.96
658.0, 0.0045, 98.96
659.0, 0.0045, 98.97
660.0, 0.0044, 98.98
661.0, 0.0044, 98.99
662.0, 0.0043, 99.01
663.0, 0.0043, 99.02
664.0, 0.0043, 99.02
665.0, 0.0043, 99.02
666.0, 0.0043, 99.02
667.0, 0.0042, 99.04
668.0, 0.0042, 99.03
669.0, 0.0041, 99.05
670.0, 0.0042, 99.05
671.0, 0.0040, 99.08
672.0, 0.0040, 99.07
673.0, 0.0040, 99.09
674.0, 0.0039, 99.11
675.0, 0.0039, 99.11
676.0, 0.0039, 99.12
677.0, 0.0038, 99.14
678.0, 0.0037, 99.15
679.0, 0.0036, 99.17
680.0, 0.0036, 99.17
681.0, 0.0036, 99.18
682.0, 0.0036, 99.19
683.0, 0.0035, 99.20
684.0, 0.0035, 99.19
685.0, 0.0035, 99.21
686.0, 0.0034, 99.22
687.0, 0.0034, 99.22
688.0, 0.0034, 99.22
689.0, 0.0034, 99.23
690.0, 0.0034, 99.23
691.0, 0.0033, 99.24
692.0, 0.0033, 99.25
693.0, 0.0032, 99.26
694.0, 0.0031, 99.28
695.0, 0.0031, 99.28
696.0, 0.0030, 99.30
697.0, 0.0031, 99.30
698.0, 0.0030, 99.31
699.0, 0.0029, 99.33
700.0, 0.0029, 99.33
701.0, 0.0029, 99.33
702.0, 0.0028, 99.35
703.0, 0.0028, 99.35
704.0, 0.0028, 99.35
705.0, 0.0028, 99.35
706.0, 0.0028, 99.35
707.0, 0.0027, 99.37
708.0, 0.0027, 99.38
709.0, 0.0027, 99.39
710.0, 0.0027, 99.38
711.0, 0.0026, 99.40
712.0, 0.0026, 99.41
713.0, 0.0026, 99.40
714.0, 0.0025, 99.42
715.0, 0.0024, 99.44
716.0, 0.0025, 99.43
717.0, 0.0023, 99.46
718.0, 0.0024, 99.45
719.0, 0.0024, 99.46
720.0, 0.0024, 99.45
721.0, 0.0023, 99.46
722.0, 0.0023, 99.47
723.0, 0.0023, 99.47
724.0, 0.0024, 99.46
725.0, 0.0022, 99.49
726.0, 0.0022, 99.49
727.0, 0.0022, 99.49
728.0, 0.0022, 99.49
729.0, 0.0022, 99.50
730.0, 0.0022, 99.50
731.0, 0.0022, 99.49
732.0, 0.0022, 99.51
733.0, 0.0021, 99.52
734.0, 0.0022, 99.50
735.0, 0.0021, 99.51
736.0, 0.0021, 99.51
737.0, 0.0021, 99.53
738.0, 0.0020, 99.53
739.0, 0.0021, 99.52
740.0, 0.0020, 99.54
741.0, 0.0020, 99.54
742.0, 0.0019, 99.55
743.0, 0.0019, 99.56
744.0, 0.0019, 99.55
745.0, 0.0018, 99.58
746.0, 0.0019, 99.57
747.0, 0.0018, 99.58
748.0, 0.0017, 99.60
749.0, 0.0017, 99.60
750.0, 0.0017, 99.61
751.0, 0.0018, 99.60
752.0, 0.0016, 99.63
753.0, 0.0016, 99.63
754.0, 0.0016, 99.64
755.0, 0.0016, 99.64
756.0, 0.0015, 99.65
757.0, 0.0015, 99.66
758.0, 0.0015, 99.66
759.0, 0.0014, 99.67
760.0, 0.0014, 99.69
761.0, 0.0014, 99.67
762.0, 0.0013, 99.69
763.0, 0.0013, 99.70
764.0, 0.0012, 99.72
765.0, 0.0012, 99.72
766.0, 0.0012, 99.72
767.0, 0.0012, 99.73
768.0, 0.0011, 99.75
769.0, 0.0012, 99.73
770.0, 0.0012, 99.73
771.0, 0.0012, 99.73
772.0, 0.0011, 99.74
773.0, 0.0012, 99.73
774.0, 0.0011, 99.74
775.0, 0.0011, 99.74
776.0, 0.0010, 99.76
777.0, 0.0011, 99.76
778.0, 0.0010, 99.77
779.0, 0.0010, 99.77
780.0, 0.0009, 99.78
781.0, 0.0009, 99.78
782.0, 0.0010, 99.78
783.0, 0.0009, 99.78
784.0, 0.0009, 99.79
785.0, 0.0009, 99.80
786.0, 0.0008, 99.81
787.0, 0.0008, 99.82
788.0, 0.0008, 99.81
789.0, 0.0008, 99.83
790.0, 0.0007, 99.83
791.0, 0.0008, 99.83
792.0, 0.0008, 99.82
793.0, 0.0008, 99.82
794.0, 0.0008, 99.82
795.0, 0.0007, 99.83
796.0, 0.0008, 99.82
797.0, 0.0007, 99.83
798.0, 0.0007, 99.83
799.0, 0.0007, 99.85
800.0, 0.0007, 99.84
801.0, 0.0006, 99.85
802.0, 0.0007, 99.85
803.0, 0.0007, 99.84
804.0, 0.0006, 99.85
805.0, 0.0007, 99.85
806.0, 0.0006, 99.85
807.0, 0.0005, 99.87
808.0, 0.0007, 99.84
809.0, 0.0006, 99.87
810.0, 0.0006, 99.86
811.0, 0.0005, 99.88
812.0, 0.0006, 99.87
813.0, 0.0006, 99.87
814.0, 0.0005, 99.88
815.0, 0.0005, 99.88
816.0, 0.0006, 99.87
817.0, 0.0006, 99.86
818.0, 0.0007, 99.85
819.0, 0.0006, 99.87
820.0, 0.0006, 99.85
821.0, 0.0006, 99.86
822.0, 0.0006, 99.86
823.0, 0.0006, 99.85
824.0, 0.0006, 99.87
825.0, 0.0006, 99.85
826.0, 0.0007, 99.85
827.0, 0.0006, 99.86
828.0, 0.0007, 99.85
829.0, 0.0006, 99.87
830.0, 0.0007, 99.84
831.0, 0.0006, 99.86
832.0, 0.0008, 99.81
833.0, 0.0008, 99.81
834.0, 0.0008, 99.82
835.0, 0.0008, 99.81
836.0, 0.0008, 99.83
837.0, 0.0007, 99.84
838.0, 0.0007, 99.84
839.0, 0.0007, 99.85
840.0, 0.0007, 99.84
841.0, 0.0006, 99.86
842.0, 0.0007, 99.85
843.0, 0.0007, 99.85
844.0, 0.0007, 99.84
845.0, 0.0007, 99.83
846.0, 0.0006, 99.87
847.0, 0.0006, 99.86
848.0, 0.0006, 99.87
849.0, 0.0005, 99.87
850.0, 0.0006, 99.87
