Sample Name, DR-05P0
Time, 2017/07/12 03:16:07
Operator, Smith
Lamp, 255
Slit,0.0
Scan From, 850.0nm
Scan To, 390.0nm
Scan Step, 1.0nm
Sample Filter, 11
memo, 
WL(nm), Abs, T%
390.0, 0.0106, 97.59
391.0, 0.0104, 97.63
392.0, 0.0100, 97.71
393.0, 0.0099, 97.74
394.0, 0.0096, 97.81
395.0, 0.0095, 97.84
396.0, 0.0093, 97.88
397.0, 0.0091, 97.93
398.0, 0.0089, 97.97
399.0, 0.0088, 97.99
400.0, 0.0086, 98.04
401.0, 0.0084, 98.08
402.0, 0.0082, 98.12
403.0, 0.0081, 98.15
404.0, 0.0079, 98.20
405.0, 0.0078, 98.23
406.0, 0.0076, 98.26
407.0, 0.0074, 98.31
408.0, 0.0073, 98.33
409.0, 0.0072, 98.35
410.0, 0.0070, 98.41
411.0, 0.0069, 98.43
412.0, 0.0067, 98.47
413.0, 0.0066, 98.50
414.0, 0.0064, 98.54
415.0, 0.0063, 98.57
416.0, 0.0062, 98.59
417.0, 0.0060, 98.63
418.0, 0.0059, 98.64
419.0, 0.0057, 98.69
420.0, 0.0056, 98.71
421.0, 0.0055, 98.74
422.0, 0.0054, 98.77
423.0, 0.0052, 98.80
424.0, 0.0051, 98.83
425.0, 0.0050, 98.85
426.0, 0.0049, 98.88
427.0, 0.0048, 98.90
428.0, 0.0047, 98.92
429.0, 0.0046, 98.94
430.0, 0.0046, 98.95
431.0, 0.0044, 98.99
432.0, 0.0043, 99.02
433.0, 0.0042, 99.03
434.0, 0.0040, 99.08
435.0, 0.0040, 99.08
436.0, 0.0038, 99.12
437.0, 0.0037, 99.14
438.0, 0.0037, 99.16
439.0, 0.0036, 99.18
440.0, 0.0034, 99.22
441.0, 0.0034, 99.23
442.0, 0.0033, 99.24
443.0, 0.0032, 99.26
444.0, 0.0031, 99.28
445.0, 0.0032, 99.27
446.0, 0.0031, 99.29
447.0, 0.0031, 99.30
448.0, 0.0029, 99.34
449.0, 0.0028, 99.35
450.0, 0.0027, 99.38
451.0, 0.0028, 99.36
452.0, 0.0028, 99.36
453.0, 0.0027, 99.38
454.0, 0.0027, 99.39
455.0, 0.0026, 99.40
456.0, 0.0024, 99.45
457.0, 0.0025, 99.44
458.0, 0.0024, 99.45
459.0, 0.0023, 99.47
460.0, 0.0023, 99.47
461.0, 0.0022, 99.50
462.0, 0.0022, 99.49
463.0, 0.0021, 99.52
464.0, 0.0020, 99.54
465.0, 0.0020, 99.53
466.0, 0.0019, 99.56
467.0, 0.0019, 99.56
468.0, 0.0019, 99.57
469.0, 0.0018, 99.58
470.0, 0.0019, 99.57
471.0, 0.0017, 99.61
472.0, 0.0017, 99.61
473.0, 0.0016, 99.64
474.0, 0.0016, 99.63
475.0, 0.0015, 99.65
476.0, 0.0015, 99.67
477.0, 0.0014, 99.67
478.0, 0.0014, 99.67
479.0, 0.0014, 99.68
480.0, 0.0014, 99.69
481.0, 0.0013, 99.71
482.0, 0.0013, 99.69
483.0, 0.0012, 99.73
484.0, 0.0012, 99.73
485.0, 0.0011, 99.75
486.0, 0.0011, 99.75
487.0, 0.0010, 99.76
488.0, 0.0010, 99.77
489.0, 0.0010, 99.77
490.0, 0.0010, 99.77
491.0, 0.0009, 99.79
492.0, 0.0009, 99.79
493.0, 0.0009, 99.80
494.0, 0.0008, 99.81
495.0, 0.0008, 99.82
496.0, 0.0008, 99.82
497.0, 0.0007, 99.84
498.0, 0.0007, 99.84
499.0, 0.0007, 99.84
500.0, 0.0006, 99.87
501.0, 0.0006, 99.86
502.0, 0.0006, 99.87
503.0, 0.0005, 99.88
504.0, 0.0005, 99.88
505.0, 0.0005, 99.89
506.0, 0.0005, 99.90
507.0, 0.0004, 99.90
508.0, 0.0004, 99.90
509.0, 0.0003, 99.92
510.0, 0.0003, 99.92
511.0, 0.0003, 99.93
512.0, 0.0003, 99.94
513.0, 0.0002, 99.96
514.0, 0.0002, 99.95
515.0, 0.0002, 99.96
516.0, 0.0002, 99.95
517.0, 0.0002, 99.95
518.0, 0.0002, 99.95
519.0, 0.0002, 99.96
520.0, 0.0001, 99.97
521.0, 0.0001, 99.97
522.0, 0.0000, 99.99
523.0, 0.0001, 99.98
524.0, 0.0001, 99.98
525.0, 0.0001, 99.98
526.0, 0.0000, 99.99
527.0, -0.0000, 100.01
528.0, 0.0000, 99.99
529.0, 0.0000, 100.00
530.0, -0.0000, 100.01
531.0, -0.0000, 100.01
532.0, -0.0000, 100.01
533.0, -0.0000, 100.01
534.0, -0.0001, 100.02
535.0, -0.0002, 100.04
536.0, -0.0001, 100.02
537.0, -0.0002, 100.04
538.0, -0.0002, 100.05
539.0, -0.0002, 100.04
540.0, -0.0002, 100.04
541.0, -0.0002, 100.04
542.0, -0.0002, 100.04
543.0, -0.0003, 100.07
544.0, -0.0003, 100.07
545.0, -0.0003, 100.07
546.0, -0.0003, 100.07
547.0, -0.0004, 100.09
548.0, -0.0004, 100.09
549.0, -0.0003, 100.08
550.0, -0.0004, 100.09
551.0, -0.0004, 100.08
552.0, -0.0004, 100.08
553.0, -0.0004, 100.10
554.0, -0.0004, 100.09
555.0, -0.0004, 100.09
556.0, -0.0004, 100.10
557.0, -0.0005, 100.12
558.0, -0.0005, 100.12
559.0, -0.0006, 100.13
560.0, -0.0005, 100.11
561.0, -0.0005, 100.12
562.0, -0.0005, 100.12
563.0, -0.0006, 100.13
564.0, -0.0006, 100.14
565.0, -0.0006, 100.13
566.0, -0.0006, 100.13
567.0, -0.0006, 100.13
568.0, -0.0006, 100.13
569.0, -0.0006, 100.15
570.0, -0.0005, 100.11
571.0, -0.0006, 100.13
572.0, -0.0006, 100.15
573.0, -0.0006, 100.15
574.0, -0.0006, 100.15
575.0, -0.0006, 100.14
576.0, -0.0006, 100.15
577.0, -0.0007, 100.16
578.0, -0.0007, 100.15
579.0, -0.0006, 100.14
580.0, -0.0007, 100.16
581.0, -0.0008, 100.18
582.0, -0.0007, 100.17
583.0, -0.0008, 100.17
584.0, -0.0007, 100.17
585.0, -0.0007, 100.16
586.0, -0.0008, 100.19
587.0, -0.0008, 100.19
588.0, -0.0009, 100.22
589.0, -0.0009, 100.22
590.0, -0.0009, 100.21
591.0, -0.0008, 100.19
592.0, -0.0009, 100.21
593.0, -0.0009, 100.21
594.0, -0.0008, 100.19
595.0, -0.0009, 100.21
596.0, -0.0009, 100.20
597.0, -0.0010, 100.22
598.0, -0.0010, 100.24
599.0, -0.0010, 100.22
600.0, -0.0010, 100.24
601.0, -0.0010, 100.24
602.0, -0.0010, 100.23
603.0, -0.0010, 100.23
604.0, -0.0010, 100.24
605.0, -0.0010, 100.24
606.0, -0.0010, 100.23
607.0, -0.0010, 100.23
608.0, -0.0010, 100.24
609.0, -0.0010, 100.22
610.0, -0.0010, 100.23
611.0, -0.0010, 100.24
612.0, -0.0009, 100.22
613.0, -0.0010, 100.23
614.0, -0.0010, 100.22
615.0, -0.0010, 100.22
616.0, -0.0010, 100.23
617.0, -0.0009, 100.22
618.0, -0.0010, 100.24
619.0, -0.0010, 100.23
620.0, -0.0010, 100.24
621.0, -0.0011, 100.25
622.0, -0.0011, 100.24
623.0, -0.0011, 100.26
624.0, -0.0011, 100.25
625.0, -0.0011, 100.26
626.0, -0.0011, 100.26
627.0, -0.0011, 100.26
628.0, -0.0012, 100.27
629.0, -0.0012, 100.27
630.0, -0.0012, 100.28
631.0, -0.0011, 100.25
632.0, -0.0012, 100.28
633.0, -0.0012, 100.28
634.0, -0.0012, 100.29
635.0, -0.0012, 100.28
636.0, -0.0012, 100.28
637.0, -0.0012, 100.27
638.0, -0.0012, 100.27
639.0, -0.0012, 100.27
640.0, -0.0013, 100.29
641.0, -0.0011, 100.26
642.0, -0.0012, 100.29
643.0, -0.0012, 100.29
644.0, -0.0013, 100.29
645.0, -0.0012, 100.28
646.0, -0.0013, 100.29
647.0, -0.0012, 100.28
648.0, -0.0013, 100.29
649.0, -0.0012, 100.29
650.0, -0.0013, 100.30
651.0, -0.0013, 100.30
652.0, -0.0013, 100.30
653.0, -0.0013, 100.29
654.0, -0.0014, 100.31
655.0, -0.0013, 100.31
656.0, -0.0013, 100.31
657.0, -0.0014, 100.32
658.0, -0.0013, 100.31
659.0, -0.0014, 100.31
660.0, -0.0014, 100.32
661.0, -0.0014, 100.33
662.0, -0.0014, 100.33
663.0, -0.0014, 100.32
664.0, -0.0013, 100.30
665.0, -0.0012, 100.29
666.0, -0.0013, 100.30
667.0, -0.0012, 100.29
668.0, -0.0012, 100.28
669.0, -0.0012, 100.29
670.0, -0.0012, 100.28
671.0, -0.0013, 100.30
672.0, -0.0012, 100.29
673.0, -0.0013, 100.30
674.0, -0.0013, 100.31
675.0, -0.0013, 100.30
676.0, -0.0014, 100.31
677.0, -0.0014, 100.31
678.0, -0.0014, 100.32
679.0, -0.0014, 100.33
680.0, -0.0014, 100.33
681.0, -0.0014, 100.32
682.0, -0.0014, 100.33
683.0, -0.0014, 100.33
684.0, -0.0014, 100.32
685.0, -0.0014, 100.33
686.0, -0.0014, 100.33
687.0, -0.0014, 100.33
688.0, -0.0015, 100.33
689.0, -0.0015, 100.34
690.0, -0.0014, 100.33
691.0, -0.0014, 100.33
692.0, -0.0014, 100.33
693.0, -0.0014, 100.33
694.0, -0.0015, 100.34
695.0, -0.0014, 100.32
696.0, -0.0015, 100.34
697.0, -0.0015, 100.34
698.0, -0.0015, 100.34
699.0, -0.0015, 100.34
700.0, -0.0015, 100.34
701.0, -0.0014, 100.33
702.0, -0.0015, 100.35
703.0, -0.0015, 100.34
704.0, -0.0015, 100.34
705.0, -0.0015, 100.34
706.0, -0.0015, 100.34
707.0, -0.0015, 100.35
708.0, -0.0015, 100.35
709.0, -0.0015, 100.35
710.0, -0.0015, 100.35
711.0, -0.0016, 100.36
712.0, -0.0016, 100.37
713.0, -0.0016, 100.36
714.0, -0.0016, 100.37
715.0, -0.0016, 100.37
716.0, -0.0016, 100.36
717.0, -0.0016, 100.36
718.0, -0.0016, 100.37
719.0, -0.0015, 100.36
720.0, -0.0014, 100.33
721.0, -0.0015, 100.34
722.0, -0.0015, 100.35
723.0, -0.0015, 100.34
724.0, -0.0014, 100.33
725.0, -0.0015, 100.35
726.0, -0.0015, 100.35
727.0, -0.0015, 100.35
728.0, -0.0015, 100.35
729.0, -0.0015, 100.35
730.0, -0.0016, 100.38
731.0, -0.0016, 100.36
732.0, -0.0017, 100.38
733.0, -0.0017, 100.39
734.0, -0.0016, 100.37
735.0, -0.0015, 100.36
736.0, -0.0014, 100.33
737.0, -0.0013, 100.31
738.0, -0.0012, 100.29
739.0, -0.0012, 100.27
740.0, -0.0011, 100.25
741.0, -0.0010, 100.24
742.0, -0.0010, 100.22
743.0, -0.0009, 100.21
744.0, -0.0008, 100.20
745.0, -0.0009, 100.20
746.0, -0.0008, 100.19
747.0, -0.0008, 100.19
748.0, -0.0009, 100.20
749.0, -0.0009, 100.21
750.0, -0.0009, 100.22
751.0, -0.0009, 100.21
752.0, -0.0010, 100.22
753.0, -0.0009, 100.22
754.0, -0.0010, 100.22
755.0, -0.0009, 100.21
756.0, -0.0009, 100.21
757.0, -0.0010, 100.22
758.0, -0.0010, 100.22
759.0, -0.0010, 100.23
760.0, -0.0011, 100.25
761.0, -0.0011, 100.25
762.0, -0.0011, 100.26
763.0, -0.0011, 100.25
764.0, -0.0011, 100.25
765.0, -0.0012, 100.28
766.0, -0.0012, 100.27
767.0, -0.0013, 100.29
768.0, -0.0014, 100.32
769.0, -0.0013, 100.30
770.0, -0.0013, 100.31
771.0, -0.0013, 100.29
772.0, -0.0013, 100.31
773.0, -0.0014, 100.31
774.0, -0.0014, 100.32
775.0, -0.0014, 100.33
776.0, -0.0015, 100.34
777.0, -0.0015, 100.34
778.0, -0.0015, 100.35
779.0, -0.0015, 100.35
780.0, -0.0016, 100.36
781.0, -0.0016, 100.36
782.0, -0.0016, 100.36
783.0, -0.0016, 100.36
784.0, -0.0016, 100.37
785.0, -0.0017, 100.39
786.0, -0.0017, 100.38
787.0, -0.0017, 100.40
788.0, -0.0017, 100.40
789.0, -0.0018, 100.42
790.0, -0.0019, 100.43
791.0, -0.0019, 100.43
792.0, -0.0018, 100.41
793.0, -0.0018, 100.42
794.0, -0.0019, 100.43
795.0, -0.0018, 100.42
796.0, -0.0017, 100.40
797.0, -0.0018, 100.42
798.0, -0.0019, 100.43
799.0, -0.0019, 100.45
800.0, -0.0019, 100.45
801.0, -0.0020, 100.46
802.0, -0.0020, 100.45
803.0, -0.0019, 100.45
804.0, -0.0020, 100.46
805.0, -0.0020, 100.46
806.0, -0.0020, 100.45
807.0, -0.0021, 100.48
808.0, -0.0020, 100.47
809.0, -0.0021, 100.49
810.0, -0.0021, 100.48
811.0, -0.0021, 100.49
812.0, -0.0021, 100.48
813.0, -0.0021, 100.49
814.0, -0.0021, 100.49
815.0, -0.0022, 100.50
816.0, -0.0021, 100.49
817.0, -0.0021, 100.48
818.0, -0.0020, 100.47
819.0, -0.0020, 100.47
820.0, -0.0020, 100.46
821.0, -0.0020, 100.47
822.0, -0.0020, 100.47
823.0, -0.0021, 100.48
824.0, -0.0021, 100.49
825.0, -0.0022, 100.50
826.0, -0.0022, 100.50
827.0, -0.0022, 100.51
828.0, -0.0023, 100.52
829.0, -0.0023, 100.54
830.0, -0.0022, 100.51
831.0, -0.0023, 100.52
832.0, -0.0021, 100.48
833.0, -0.0020, 100.46
834.0, -0.0019, 100.44
835.0, -0.0018, 100.41
836.0, -0.0016, 100.38
837.0, -0.0015, 100.36
838.0, -0.0015, 100.35
839.0, -0.0014, 100.33
840.0, -0.0014, 100.31
841.0, -0.0014, 100.32
842.0, -0.0014, 100.32
843.0, -0.0013, 100.29
844.0, -0.0013, 100.30
845.0, -0.0012, 100.28
846.0, -0.0013, 100.30
847.0, -0.0013, 100.30
848.0, -0.0014, 100.31
849.0, -0.0014, 100.32
850.0, -0.0014, 100.31
